PHOENIX module psth; 10/31/16 at 12:16:51 -07:00
temperature (K),vibrational kinetic energy (meV/atom),error of vibrational kinetic energy (meV/atom)
 1.00000E-01, 6.66865E+00, 3.89711E-03
 1.00995E+01, 6.66873E+00, 3.89711E-03
 2.00990E+01, 6.66993E+00, 3.89713E-03
 3.00985E+01, 6.67604E+00, 3.89770E-03
 4.00980E+01, 6.69494E+00, 3.90130E-03
 5.00975E+01, 6.73606E+00, 3.91234E-03
 6.00970E+01, 6.80651E+00, 3.93532E-03
 7.00965E+01, 6.90976E+00, 3.97346E-03
 8.00960E+01, 7.04616E+00, 4.02829E-03
 9.00955E+01, 7.21404E+00, 4.09998E-03
 1.00095E+02, 7.41069E+00, 4.18776E-03
 1.10095E+02, 7.63303E+00, 4.29039E-03
 1.20094E+02, 7.87802E+00, 4.40640E-03
 1.30094E+02, 8.14278E+00, 4.53430E-03
 1.40093E+02, 8.42479E+00, 4.67268E-03
 1.50093E+02, 8.72180E+00, 4.82026E-03
 1.60092E+02, 9.03189E+00, 4.97590E-03
 1.70092E+02, 9.35338E+00, 5.13861E-03
 1.80091E+02, 9.68486E+00, 5.30751E-03
 1.90091E+02, 1.00251E+01, 5.48186E-03
 2.00090E+02, 1.03731E+01, 5.66101E-03
 2.10090E+02, 1.07279E+01, 5.84440E-03
 2.20089E+02, 1.10887E+01, 6.03156E-03
 2.30089E+02, 1.14550E+01, 6.22206E-03
 2.40088E+02, 1.18261E+01, 6.41555E-03
 2.50088E+02, 1.22014E+01, 6.61172E-03
 2.60087E+02, 1.25807E+01, 6.81028E-03
 2.70087E+02, 1.29635E+01, 7.01101E-03
 2.80086E+02, 1.33494E+01, 7.21370E-03
 2.90086E+02, 1.37382E+01, 7.41815E-03
 3.00085E+02, 1.41296E+01, 7.62421E-03
 3.10085E+02, 1.45234E+01, 7.83173E-03
 3.20084E+02, 1.49194E+01, 8.04059E-03
 3.30084E+02, 1.53173E+01, 8.25068E-03
 3.40083E+02, 1.57171E+01, 8.46188E-03
 3.50083E+02, 1.61186E+01, 8.67412E-03
 3.60082E+02, 1.65216E+01, 8.88731E-03
 3.70082E+02, 1.69261E+01, 9.10137E-03
 3.80081E+02, 1.73318E+01, 9.31624E-03
 3.90081E+02, 1.77389E+01, 9.53187E-03
 4.00080E+02, 1.81470E+01, 9.74820E-03
 4.10080E+02, 1.85563E+01, 9.96517E-03
 4.20079E+02, 1.89665E+01, 1.01827E-02
 4.30079E+02, 1.93776E+01, 1.04009E-02
 4.40078E+02, 1.97896E+01, 1.06196E-02
 4.50078E+02, 2.02025E+01, 1.08387E-02
 4.60077E+02, 2.06160E+01, 1.10583E-02
 4.70077E+02, 2.10303E+01, 1.12784E-02
 4.80076E+02, 2.14453E+01, 1.14989E-02
 4.90076E+02, 2.18609E+01, 1.17197E-02
 5.00075E+02, 2.22771E+01, 1.19409E-02
 5.10075E+02, 2.26939E+01, 1.21624E-02
 5.20074E+02, 2.31111E+01, 1.23843E-02
 5.30074E+02, 2.35289E+01, 1.26065E-02
 5.40073E+02, 2.39472E+01, 1.28289E-02
 5.50073E+02, 2.43659E+01, 1.30517E-02
 5.60072E+02, 2.47850E+01, 1.32746E-02
 5.70072E+02, 2.52045E+01, 1.34979E-02
 5.80071E+02, 2.56245E+01, 1.37213E-02
 5.90071E+02, 2.60447E+01, 1.39450E-02
 6.00070E+02, 2.64654E+01, 1.41689E-02
 6.10070E+02, 2.68863E+01, 1.43930E-02
 6.20069E+02, 2.73076E+01, 1.46172E-02
 6.30069E+02, 2.77292E+01, 1.48417E-02
 6.40068E+02, 2.81510E+01, 1.50663E-02
 6.50068E+02, 2.85731E+01, 1.52911E-02
 6.60067E+02, 2.89955E+01, 1.55160E-02
 6.70067E+02, 2.94182E+01, 1.57411E-02
 6.80066E+02, 2.98410E+01, 1.59664E-02
 6.90066E+02, 3.02641E+01, 1.61918E-02
 7.00065E+02, 3.06874E+01, 1.64173E-02
 7.10065E+02, 3.11110E+01, 1.66429E-02
 7.20064E+02, 3.15347E+01, 1.68687E-02
 7.30064E+02, 3.19586E+01, 1.70945E-02
 7.40063E+02, 3.23827E+01, 1.73205E-02
 7.50063E+02, 3.28070E+01, 1.75466E-02
 7.60062E+02, 3.32315E+01, 1.77728E-02
 7.70062E+02, 3.36561E+01, 1.79991E-02
 7.80061E+02, 3.40809E+01, 1.82255E-02
 7.90061E+02, 3.45058E+01, 1.84519E-02
 8.00060E+02, 3.49309E+01, 1.86785E-02
 8.10060E+02, 3.53561E+01, 1.89051E-02
 8.20059E+02, 3.57814E+01, 1.91319E-02
 8.30059E+02, 3.62069E+01, 1.93587E-02
 8.40058E+02, 3.66325E+01, 1.95856E-02
 8.50058E+02, 3.70583E+01, 1.98125E-02
 8.60057E+02, 3.74841E+01, 2.00396E-02
 8.70057E+02, 3.79101E+01, 2.02667E-02
 8.80056E+02, 3.83362E+01, 2.04938E-02
 8.90056E+02, 3.87623E+01, 2.07211E-02
 9.00055E+02, 3.91886E+01, 2.09483E-02
 9.10055E+02, 3.96150E+01, 2.11757E-02
 9.20054E+02, 4.00415E+01, 2.14031E-02
 9.30054E+02, 4.04681E+01, 2.16306E-02
 9.40053E+02, 4.08947E+01, 2.18581E-02
 9.50053E+02, 4.13215E+01, 2.20857E-02
 9.60052E+02, 4.17483E+01, 2.23133E-02
 9.70052E+02, 4.21752E+01, 2.25409E-02
 9.80051E+02, 4.26022E+01, 2.27687E-02
 9.90051E+02, 4.30293E+01, 2.29964E-02
 1.00005E+03, 4.34564E+01, 2.32242E-02
 1.01005E+03, 4.38837E+01, 2.34521E-02
 1.02005E+03, 4.43110E+01, 2.36800E-02
 1.03005E+03, 4.47383E+01, 2.39079E-02
 1.04005E+03, 4.51657E+01, 2.41359E-02
 1.05005E+03, 4.55932E+01, 2.43639E-02
 1.06005E+03, 4.60208E+01, 2.45920E-02
 1.07005E+03, 4.64484E+01, 2.48200E-02
 1.08005E+03, 4.68761E+01, 2.50482E-02
 1.09005E+03, 4.73038E+01, 2.52763E-02
 1.10005E+03, 4.77316E+01, 2.55045E-02
 1.11004E+03, 4.81594E+01, 2.57328E-02
 1.12004E+03, 4.85873E+01, 2.59610E-02
 1.13004E+03, 4.90153E+01, 2.61893E-02
 1.14004E+03, 4.94433E+01, 2.64176E-02
 1.15004E+03, 4.98713E+01, 2.66460E-02
 1.16004E+03, 5.02994E+01, 2.68743E-02
 1.17004E+03, 5.07276E+01, 2.71028E-02
 1.18004E+03, 5.11558E+01, 2.73312E-02
 1.19004E+03, 5.15840E+01, 2.75596E-02
 1.20004E+03, 5.20123E+01, 2.77881E-02
 1.21004E+03, 5.24406E+01, 2.80166E-02
 1.22004E+03, 5.28690E+01, 2.82452E-02
 1.23004E+03, 5.32974E+01, 2.84737E-02
 1.24004E+03, 5.37258E+01, 2.87023E-02
 1.25004E+03, 5.41543E+01, 2.89309E-02
 1.26004E+03, 5.45828E+01, 2.91596E-02
 1.27004E+03, 5.50114E+01, 2.93882E-02
 1.28004E+03, 5.54399E+01, 2.96169E-02
 1.29004E+03, 5.58686E+01, 2.98456E-02
 1.30004E+03, 5.62972E+01, 3.00743E-02
 1.31003E+03, 5.67259E+01, 3.03030E-02
 1.32003E+03, 5.71546E+01, 3.05318E-02
 1.33003E+03, 5.75834E+01, 3.07605E-02
 1.34003E+03, 5.80122E+01, 3.09893E-02
 1.35003E+03, 5.84410E+01, 3.12181E-02
 1.36003E+03, 5.88698E+01, 3.14470E-02
 1.37003E+03, 5.92987E+01, 3.16758E-02
 1.38003E+03, 5.97276E+01, 3.19047E-02
 1.39003E+03, 6.01566E+01, 3.21335E-02
 1.40003E+03, 6.05855E+01, 3.23624E-02
 1.41003E+03, 6.10145E+01, 3.25913E-02
 1.42003E+03, 6.14435E+01, 3.28203E-02
 1.43003E+03, 6.18726E+01, 3.30492E-02
 1.44003E+03, 6.23016E+01, 3.32782E-02
 1.45003E+03, 6.27307E+01, 3.35071E-02
 1.46003E+03, 6.31598E+01, 3.37361E-02
 1.47003E+03, 6.35889E+01, 3.39651E-02
 1.48003E+03, 6.40181E+01, 3.41941E-02
 1.49003E+03, 6.44473E+01, 3.44232E-02
 1.50003E+03, 6.48765E+01, 3.46522E-02
 1.51002E+03, 6.53057E+01, 3.48813E-02
 1.52002E+03, 6.57350E+01, 3.51103E-02
 1.53002E+03, 6.61642E+01, 3.53394E-02
 1.54002E+03, 6.65935E+01, 3.55685E-02
 1.55002E+03, 6.70228E+01, 3.57976E-02
 1.56002E+03, 6.74521E+01, 3.60267E-02
 1.57002E+03, 6.78815E+01, 3.62558E-02
 1.58002E+03, 6.83109E+01, 3.64850E-02
 1.59002E+03, 6.87402E+01, 3.67141E-02
 1.60002E+03, 6.91696E+01, 3.69433E-02
 1.61002E+03, 6.95991E+01, 3.71724E-02
 1.62002E+03, 7.00285E+01, 3.74016E-02
 1.63002E+03, 7.04579E+01, 3.76308E-02
 1.64002E+03, 7.08874E+01, 3.78600E-02
 1.65002E+03, 7.13169E+01, 3.80892E-02
 1.66002E+03, 7.17464E+01, 3.83184E-02
 1.67002E+03, 7.21759E+01, 3.85477E-02
 1.68002E+03, 7.26055E+01, 3.87769E-02
 1.69002E+03, 7.30350E+01, 3.90061E-02
 1.70002E+03, 7.34646E+01, 3.92354E-02
 1.71001E+03, 7.38942E+01, 3.94647E-02
 1.72001E+03, 7.43238E+01, 3.96939E-02
 1.73001E+03, 7.47534E+01, 3.99232E-02
 1.74001E+03, 7.51830E+01, 4.01525E-02
 1.75001E+03, 7.56126E+01, 4.03818E-02
 1.76001E+03, 7.60423E+01, 4.06111E-02
 1.77001E+03, 7.64719E+01, 4.08404E-02
 1.78001E+03, 7.69016E+01, 4.10698E-02
 1.79001E+03, 7.73313E+01, 4.12991E-02
 1.80001E+03, 7.77610E+01, 4.15284E-02
 1.81001E+03, 7.81907E+01, 4.17578E-02
 1.82001E+03, 7.86205E+01, 4.19871E-02
 1.83001E+03, 7.90502E+01, 4.22165E-02
 1.84001E+03, 7.94800E+01, 4.24459E-02
 1.85001E+03, 7.99097E+01, 4.26753E-02
 1.86001E+03, 8.03395E+01, 4.29046E-02
 1.87001E+03, 8.07693E+01, 4.31340E-02
 1.88001E+03, 8.11991E+01, 4.33634E-02
 1.89001E+03, 8.16289E+01, 4.35928E-02
 1.90001E+03, 8.20587E+01, 4.38222E-02
 1.91000E+03, 8.24886E+01, 4.40517E-02
 1.92000E+03, 8.29184E+01, 4.42811E-02
 1.93000E+03, 8.33483E+01, 4.45105E-02
 1.94000E+03, 8.37781E+01, 4.47399E-02
 1.95000E+03, 8.42080E+01, 4.49694E-02
 1.96000E+03, 8.46379E+01, 4.51988E-02
 1.97000E+03, 8.50678E+01, 4.54283E-02
 1.98000E+03, 8.54977E+01, 4.56577E-02
 1.99000E+03, 8.59276E+01, 4.58872E-02
 2.00000E+03, 8.63575E+01, 4.61167E-02
