PHOENIX module psth; 10/31/16 at 12:16:51 -07:00
temperature (K),vibrational specific heat (k_B/atom),error of vibrational specific heat (k_B/atom)
 1.00000E-01, 1.07823E-09, 1.06786E-11
 1.00995E+01, 2.13245E-03, 2.08644E-06
 2.00990E+01, 1.86890E-02, 1.23834E-05
 3.00985E+01, 7.59462E-02, 4.14025E-05
 4.00980E+01, 1.98720E-01, 1.05206E-04
 5.00975E+01, 3.82288E-01, 2.00753E-04
 6.00970E+01, 6.02794E-01, 3.13101E-04
 7.00965E+01, 8.35365E-01, 4.29948E-04
 8.00960E+01, 1.06206E+00, 5.43726E-04
 9.00955E+01, 1.27258E+00, 6.50257E-04
 1.00095E+02, 1.46238E+00, 7.47536E-04
 1.10095E+02, 1.63047E+00, 8.34930E-04
 1.20094E+02, 1.77785E+00, 9.12631E-04
 1.30094E+02, 1.90639E+00, 9.81286E-04
 1.40093E+02, 2.01828E+00, 1.04175E-03
 1.50093E+02, 2.11569E+00, 1.09493E-03
 1.60092E+02, 2.20063E+00, 1.14172E-03
 1.70092E+02, 2.27487E+00, 1.18295E-03
 1.80091E+02, 2.33995E+00, 1.21933E-03
 1.90091E+02, 2.39718E+00, 1.25153E-03
 2.00090E+02, 2.44770E+00, 1.28009E-03
 2.10090E+02, 2.49243E+00, 1.30550E-03
 2.20089E+02, 2.53218E+00, 1.32818E-03
 2.30089E+02, 2.56762E+00, 1.34848E-03
 2.40088E+02, 2.59934E+00, 1.36670E-03
 2.50088E+02, 2.62780E+00, 1.38310E-03
 2.60087E+02, 2.65344E+00, 1.39790E-03
 2.70087E+02, 2.67658E+00, 1.41130E-03
 2.80086E+02, 2.69755E+00, 1.42347E-03
 2.90086E+02, 2.71659E+00, 1.43454E-03
 3.00085E+02, 2.73393E+00, 1.44464E-03
 3.10085E+02, 2.74976E+00, 1.45387E-03
 3.20084E+02, 2.76425E+00, 1.46233E-03
 3.30084E+02, 2.77754E+00, 1.47010E-03
 3.40083E+02, 2.78976E+00, 1.47726E-03
 3.50083E+02, 2.80101E+00, 1.48385E-03
 3.60082E+02, 2.81140E+00, 1.48995E-03
 3.70082E+02, 2.82101E+00, 1.49559E-03
 3.80081E+02, 2.82991E+00, 1.50083E-03
 3.90081E+02, 2.83817E+00, 1.50569E-03
 4.00080E+02, 2.84586E+00, 1.51021E-03
 4.10080E+02, 2.85301E+00, 1.51443E-03
 4.20079E+02, 2.85969E+00, 1.51836E-03
 4.30079E+02, 2.86592E+00, 1.52204E-03
 4.40078E+02, 2.87175E+00, 1.52548E-03
 4.50078E+02, 2.87722E+00, 1.52871E-03
 4.60077E+02, 2.88234E+00, 1.53174E-03
 4.70077E+02, 2.88716E+00, 1.53459E-03
 4.80076E+02, 2.89168E+00, 1.53726E-03
 4.90076E+02, 2.89595E+00, 1.53978E-03
 5.00075E+02, 2.89997E+00, 1.54216E-03
 5.10075E+02, 2.90376E+00, 1.54441E-03
 5.20074E+02, 2.90734E+00, 1.54653E-03
 5.30074E+02, 2.91072E+00, 1.54854E-03
 5.40073E+02, 2.91393E+00, 1.55044E-03
 5.50073E+02, 2.91697E+00, 1.55224E-03
 5.60072E+02, 2.91985E+00, 1.55394E-03
 5.70072E+02, 2.92258E+00, 1.55557E-03
 5.80071E+02, 2.92518E+00, 1.55711E-03
 5.90071E+02, 2.92765E+00, 1.55857E-03
 6.00070E+02, 2.93000E+00, 1.55997E-03
 6.10070E+02, 2.93224E+00, 1.56129E-03
 6.20069E+02, 2.93437E+00, 1.56256E-03
 6.30069E+02, 2.93640E+00, 1.56377E-03
 6.40068E+02, 2.93835E+00, 1.56492E-03
 6.50068E+02, 2.94020E+00, 1.56602E-03
 6.60067E+02, 2.94197E+00, 1.56708E-03
 6.70067E+02, 2.94367E+00, 1.56809E-03
 6.80066E+02, 2.94529E+00, 1.56905E-03
 6.90066E+02, 2.94684E+00, 1.56997E-03
 7.00065E+02, 2.94833E+00, 1.57086E-03
 7.10065E+02, 2.94976E+00, 1.57171E-03
 7.20064E+02, 2.95113E+00, 1.57252E-03
 7.30064E+02, 2.95244E+00, 1.57330E-03
 7.40063E+02, 2.95370E+00, 1.57405E-03
 7.50063E+02, 2.95492E+00, 1.57477E-03
 7.60062E+02, 2.95608E+00, 1.57547E-03
 7.70062E+02, 2.95720E+00, 1.57614E-03
 7.80061E+02, 2.95828E+00, 1.57678E-03
 7.90061E+02, 2.95932E+00, 1.57740E-03
 8.00060E+02, 2.96032E+00, 1.57799E-03
 8.10060E+02, 2.96129E+00, 1.57857E-03
 8.20059E+02, 2.96222E+00, 1.57912E-03
 8.30059E+02, 2.96311E+00, 1.57965E-03
 8.40058E+02, 2.96398E+00, 1.58017E-03
 8.50058E+02, 2.96481E+00, 1.58067E-03
 8.60057E+02, 2.96562E+00, 1.58115E-03
 8.70057E+02, 2.96640E+00, 1.58161E-03
 8.80056E+02, 2.96715E+00, 1.58206E-03
 8.90056E+02, 2.96788E+00, 1.58249E-03
 9.00055E+02, 2.96858E+00, 1.58291E-03
 9.10055E+02, 2.96927E+00, 1.58332E-03
 9.20054E+02, 2.96992E+00, 1.58371E-03
 9.30054E+02, 2.97056E+00, 1.58409E-03
 9.40053E+02, 2.97118E+00, 1.58446E-03
 9.50053E+02, 2.97178E+00, 1.58482E-03
 9.60052E+02, 2.97236E+00, 1.58516E-03
 9.70052E+02, 2.97293E+00, 1.58550E-03
 9.80051E+02, 2.97347E+00, 1.58582E-03
 9.90051E+02, 2.97400E+00, 1.58614E-03
 1.00005E+03, 2.97452E+00, 1.58645E-03
 1.01005E+03, 2.97501E+00, 1.58674E-03
 1.02005E+03, 2.97550E+00, 1.58703E-03
 1.03005E+03, 2.97597E+00, 1.58731E-03
 1.04005E+03, 2.97643E+00, 1.58759E-03
 1.05005E+03, 2.97687E+00, 1.58785E-03
 1.06005E+03, 2.97730E+00, 1.58811E-03
 1.07005E+03, 2.97772E+00, 1.58836E-03
 1.08005E+03, 2.97813E+00, 1.58860E-03
 1.09005E+03, 2.97853E+00, 1.58884E-03
 1.10005E+03, 2.97891E+00, 1.58907E-03
 1.11004E+03, 2.97929E+00, 1.58929E-03
 1.12004E+03, 2.97966E+00, 1.58951E-03
 1.13004E+03, 2.98001E+00, 1.58972E-03
 1.14004E+03, 2.98036E+00, 1.58993E-03
 1.15004E+03, 2.98070E+00, 1.59013E-03
 1.16004E+03, 2.98103E+00, 1.59033E-03
 1.17004E+03, 2.98135E+00, 1.59052E-03
 1.18004E+03, 2.98166E+00, 1.59071E-03
 1.19004E+03, 2.98197E+00, 1.59089E-03
 1.20004E+03, 2.98227E+00, 1.59107E-03
 1.21004E+03, 2.98256E+00, 1.59124E-03
 1.22004E+03, 2.98284E+00, 1.59141E-03
 1.23004E+03, 2.98312E+00, 1.59158E-03
 1.24004E+03, 2.98339E+00, 1.59174E-03
 1.25004E+03, 2.98365E+00, 1.59189E-03
 1.26004E+03, 2.98391E+00, 1.59205E-03
 1.27004E+03, 2.98416E+00, 1.59220E-03
 1.28004E+03, 2.98441E+00, 1.59234E-03
 1.29004E+03, 2.98465E+00, 1.59249E-03
 1.30004E+03, 2.98488E+00, 1.59263E-03
 1.31003E+03, 2.98511E+00, 1.59276E-03
 1.32003E+03, 2.98533E+00, 1.59290E-03
 1.33003E+03, 2.98555E+00, 1.59303E-03
 1.34003E+03, 2.98577E+00, 1.59316E-03
 1.35003E+03, 2.98598E+00, 1.59328E-03
 1.36003E+03, 2.98618E+00, 1.59340E-03
 1.37003E+03, 2.98638E+00, 1.59352E-03
 1.38003E+03, 2.98658E+00, 1.59364E-03
 1.39003E+03, 2.98677E+00, 1.59375E-03
 1.40003E+03, 2.98696E+00, 1.59387E-03
 1.41003E+03, 2.98714E+00, 1.59398E-03
 1.42003E+03, 2.98732E+00, 1.59408E-03
 1.43003E+03, 2.98750E+00, 1.59419E-03
 1.44003E+03, 2.98767E+00, 1.59429E-03
 1.45003E+03, 2.98784E+00, 1.59439E-03
 1.46003E+03, 2.98800E+00, 1.59449E-03
 1.47003E+03, 2.98817E+00, 1.59459E-03
 1.48003E+03, 2.98832E+00, 1.59468E-03
 1.49003E+03, 2.98848E+00, 1.59478E-03
 1.50003E+03, 2.98863E+00, 1.59487E-03
 1.51002E+03, 2.98878E+00, 1.59496E-03
 1.52002E+03, 2.98893E+00, 1.59504E-03
 1.53002E+03, 2.98907E+00, 1.59513E-03
 1.54002E+03, 2.98921E+00, 1.59521E-03
 1.55002E+03, 2.98935E+00, 1.59530E-03
 1.56002E+03, 2.98949E+00, 1.59538E-03
 1.57002E+03, 2.98962E+00, 1.59546E-03
 1.58002E+03, 2.98975E+00, 1.59553E-03
 1.59002E+03, 2.98988E+00, 1.59561E-03
 1.60002E+03, 2.99001E+00, 1.59569E-03
 1.61002E+03, 2.99013E+00, 1.59576E-03
 1.62002E+03, 2.99025E+00, 1.59583E-03
 1.63002E+03, 2.99037E+00, 1.59590E-03
 1.64002E+03, 2.99049E+00, 1.59597E-03
 1.65002E+03, 2.99060E+00, 1.59604E-03
 1.66002E+03, 2.99071E+00, 1.59611E-03
 1.67002E+03, 2.99082E+00, 1.59617E-03
 1.68002E+03, 2.99093E+00, 1.59624E-03
 1.69002E+03, 2.99104E+00, 1.59630E-03
 1.70002E+03, 2.99114E+00, 1.59637E-03
 1.71001E+03, 2.99125E+00, 1.59643E-03
 1.72001E+03, 2.99135E+00, 1.59649E-03
 1.73001E+03, 2.99145E+00, 1.59655E-03
 1.74001E+03, 2.99155E+00, 1.59661E-03
 1.75001E+03, 2.99164E+00, 1.59666E-03
 1.76001E+03, 2.99174E+00, 1.59672E-03
 1.77001E+03, 2.99183E+00, 1.59677E-03
 1.78001E+03, 2.99192E+00, 1.59683E-03
 1.79001E+03, 2.99201E+00, 1.59688E-03
 1.80001E+03, 2.99210E+00, 1.59694E-03
 1.81001E+03, 2.99219E+00, 1.59699E-03
 1.82001E+03, 2.99227E+00, 1.59704E-03
 1.83001E+03, 2.99236E+00, 1.59709E-03
 1.84001E+03, 2.99244E+00, 1.59714E-03
 1.85001E+03, 2.99252E+00, 1.59719E-03
 1.86001E+03, 2.99260E+00, 1.59723E-03
 1.87001E+03, 2.99268E+00, 1.59728E-03
 1.88001E+03, 2.99276E+00, 1.59733E-03
 1.89001E+03, 2.99283E+00, 1.59737E-03
 1.90001E+03, 2.99291E+00, 1.59742E-03
 1.91000E+03, 2.99298E+00, 1.59746E-03
 1.92000E+03, 2.99305E+00, 1.59751E-03
 1.93000E+03, 2.99313E+00, 1.59755E-03
 1.94000E+03, 2.99320E+00, 1.59759E-03
 1.95000E+03, 2.99327E+00, 1.59763E-03
 1.96000E+03, 2.99333E+00, 1.59767E-03
 1.97000E+03, 2.99340E+00, 1.59771E-03
 1.98000E+03, 2.99347E+00, 1.59775E-03
 1.99000E+03, 2.99353E+00, 1.59779E-03
 2.00000E+03, 2.99360E+00, 1.59783E-03
