#
#  This is a PHOENIX instrument resolution input file
#
#  Format   :  2 column, numbers separated by blanks
#              comment lines start with an asterisk '#'
#  
#  1.column :  energy in units of meV
#  2.column :  normalized intensity
#
#
#---+----1----+----2----+----3----+----4----+----5----+----6----+----7->
#
#  Type of data :    calculated monochromator performance;
#                    Si (975) + Si (975) reflections, dispersive;
#                    center energy 14.41303 keV;
#                    energy resolution 0.9meV FWHM.
#  Origin of data :  original calculation by T.S.Toellner;
#                    published as Toellner, et al., Appl.Phys.Lett.
#
#---+----1----+----2----+----3----+----4----+----5----+----6----+----7->
#
-9.9 0.000554376
-9.8 0.000565925
-9.7 0.000577834
-9.6 0.000590121
-9.5 0.000602802
-9.4 0.000615887
-9.3 0.000629403
-9.2 0.000643365
-9.1 0.000657793
-9 0.000672707
-8.9 0.000688131
-8.8 0.00070409
-8.7 0.000720605
-8.6 0.0007377
-8.5 0.00075541
-8.4 0.000773762
-8.3 0.000792787
-8.2 0.000812519
-8.1 0.000832988
-8 0.00085424
-7.9 0.00087631
-7.8 0.00089924
-7.7 0.00092308
-7.6 0.000947875
-7.5 0.000973678
-7.4 0.00100054
-7.3 0.00102853
-7.2 0.00105771
-7.1 0.00108814
-7 0.0011199
-6.9 0.00115306
-6.8 0.00118771
-6.7 0.00122395
-6.6 0.00126186
-6.5 0.00130156
-6.4 0.00134316
-6.3 0.00138678
-6.2 0.00143255
-6.1 0.00148063
-6 0.00153116
-5.9 0.00158433
-5.8 0.0016403
-5.7 0.0016993
-5.6 0.00176153
-5.5 0.00182724
-5.4 0.0018967
-5.3 0.0019702
-5.2 0.00204806
-5.1 0.00213063
-5 0.0022183
-4.9 0.0023115
-4.8 0.00241071
-4.7 0.00251645
-4.6 0.00262934
-4.5 0.00275001
-4.4 0.0028792
-4.3 0.00301776
-4.2 0.00316659
-4.1 0.00332679
-4 0.00349949
-3.9 0.00368609
-3.8 0.00388811
-3.7 0.0041073
-3.6 0.00434569
-3.5 0.00460566
-3.4 0.00488987
-3.3 0.00520148
-3.2 0.00554419
-3.1 0.00592235
-3 0.00634107
-2.9 0.0068065
-2.8 0.007326
-2.7 0.00790842
-2.6 0.00856465
-2.5 0.00930807
-2.4 0.0101553
-2.3 0.0111275
-2.2 0.0122515
-2.1 0.0135624
-2 0.0151068
-1.9 0.0169484
-1.8 0.0191773
-1.7 0.0219273
-1.6 0.0254125
-1.5 0.0300272
-1.4 0.0365828
-1.3 0.0462468
-1.2 0.0595867
-1.1 0.0771153
-1 0.100294
-0.9 0.131742
-0.8 0.176022
-0.7 0.241221
-0.6 0.340326
-0.5 0.479944
-0.4 0.6402
-0.3 0.794084
-0.2 0.918403
-0.1 0.991111
0 1
0.1 0.947574
0.2 0.842055
0.3 0.702953
0.4 0.553657
0.5 0.414002
0.6 0.299728
0.7 0.216885
0.8 0.159723
0.9 0.11989
1 0.0913942
1.1 0.0704867
1.2 0.0549057
1.3 0.0433174
1.4 0.0349332
1.5 0.0289931
1.6 0.0246687
1.7 0.0213584
1.8 0.0187287
1.9 0.0165872
2 0.0148116
2.1 0.0133183
2.2 0.0120478
2.3 0.0109562
2.4 0.0100104
2.5 0.00918474
2.6 0.00845926
2.7 0.00781806
2.8 0.00724826
2.9 0.00673955
3 0.00628328
3.1 0.00587242
3.2 0.00550105
3.3 0.00516424
3.4 0.00485773
3.5 0.00457798
3.6 0.00432194
3.7 0.00408699
3.8 0.00387084
3.9 0.00367149
4 0.0034873
4.1 0.00331668
4.2 0.00315838
4.3 0.00301123
4.4 0.00287417
4.5 0.00274632
4.6 0.00262685
4.7 0.00251505
4.8 0.00241028
4.9 0.00231194
5 0.00221952
5.1 0.00213257
5.2 0.00205064
5.3 0.00197336
5.4 0.00190038
5.5 0.00183139
5.6 0.00176611
5.7 0.00170426
5.8 0.00164561
5.9 0.00158995
6 0.00153707
6.1 0.0014868
6.2 0.00143895
6.3 0.00139339
6.4 0.00134996
6.5 0.00130853
6.6 0.00126898
6.7 0.0012312
6.8 0.00119509
6.9 0.00116054
7 0.00112748
7.1 0.0010958
7.2 0.00106545
7.3 0.00103634
7.4 0.00100841
7.5 0.00098159
7.6 0.00095583
7.7 0.000931068
7.8 0.000907259
7.9 0.000884354
8 0.000862302
8.1 0.000841068
8.2 0.000820605
8.3 0.000800883
8.4 0.000781861
8.5 0.000763509
8.6 0.000745793
8.7 0.000728691
8.8 0.000712167
8.9 0.0006962
9 0.00068076
9.1 0.000665831
9.2 0.000651384
9.3 0.000637404
9.4 0.000623867
9.5 0.000610756
9.6 0.000598054
9.7 0.000585743
9.8 0.000573809
9.9 0.000562235
